0.0000,0.0077
1.0011,0.0079
2.0022,0.0081
3.0033,0.0083
4.0044,0.0085
5.0056,0.0087
6.0067,0.0089
7.0078,0.0091
8.0089,0.0094
9.0100,0.0096
10.0111,0.0099
11.0122,0.0102
12.0133,0.0105
13.0145,0.0108
14.0156,0.0111
15.0167,0.0115
16.0178,0.0118
17.0189,0.0122
18.0200,0.0126
19.0211,0.0130
20.0222,0.0134
21.0234,0.0139
22.0245,0.0144
23.0256,0.0149
24.0267,0.0155
25.0278,0.0160
26.0289,0.0167
27.0300,0.0173
28.0311,0.0180
29.0323,0.0188
30.0334,0.0196
31.0345,0.0205
32.0356,0.0214
33.0367,0.0224
34.0378,0.0235
35.0389,0.0247
36.0400,0.0259
37.0412,0.0273
38.0423,0.0288
39.0434,0.0305
40.0445,0.0323
41.0456,0.0343
42.0467,0.0365
43.0478,0.0389
44.0489,0.0417
45.0501,0.0447
46.0512,0.0481
47.0523,0.0520
48.0534,0.0564
49.0545,0.0615
50.0556,0.0673
51.0567,0.0740
52.0578,0.0819
53.0590,0.0912
54.0601,0.1023
55.0612,0.1157
56.0623,0.1320
57.0634,0.1522
58.0645,0.1775
59.0656,0.2097
60.0667,0.2512
61.0679,0.3058
62.0690,0.3783
63.0701,0.4752
64.0712,0.6031
65.0723,0.7641
66.0734,0.9431
67.0745,1.0919
68.0756,1.1408
69.0768,1.0623
70.0779,0.9052
71.0790,0.7375
72.0801,0.5964
73.0812,0.4902
74.0823,0.4150
75.0834,0.3646
76.0845,0.3340
77.0857,0.3202
78.0868,0.3218
79.0879,0.3395
80.0890,0.3752
81.0901,0.4319
82.0912,0.5114
83.0923,0.6077
84.0934,0.6973
85.0945,0.7384
86.0957,0.7034
87.0968,0.6104
88.0979,0.5014
89.0990,0.4045
90.1001,0.3280
91.1012,0.2705
92.1023,0.2278
93.1034,0.1961
94.1046,0.1725
95.1057,0.1548
96.1068,0.1417
97.1079,0.1319
98.1090,0.1249
99.1101,0.1202
100.1112,0.1173
101.1123,0.1162
102.1135,0.1166
103.1146,0.1186
104.1157,0.1222
105.1168,0.1274
106.1179,0.1345
107.1190,0.1438
108.1201,0.1555
109.1212,0.1703
110.1224,0.1889
111.1235,0.2122
112.1246,0.2417
113.1257,0.2794
114.1268,0.3279
115.1279,0.3913
116.1290,0.4750
117.1301,0.5870
118.1313,0.7375
119.1324,0.9385
120.1335,1.1967
121.1346,1.4970
122.1357,1.7724
123.1368,1.9047
124.1379,1.8155
125.1390,1.5586
126.1402,1.2547
127.1413,0.9838
128.1424,0.7698
129.1435,0.6083
130.1446,0.4878
131.1457,0.3975
132.1468,0.3290
133.1479,0.2761
134.1491,0.2348
135.1502,0.2020
136.1513,0.1756
137.1524,0.1541
138.1535,0.1364
139.1546,0.1216
140.1557,0.1091
141.1568,0.0985
142.1580,0.0895
143.1591,0.0817
144.1602,0.0749
145.1613,0.0690
146.1624,0.0638
147.1635,0.0592
148.1646,0.0551
149.1657,0.0515
150.1669,0.0482
151.1680,0.0453
152.1691,0.0427
153.1702,0.0403
154.1713,0.0381
155.1724,0.0362
156.1735,0.0344
157.1746,0.0327
158.1758,0.0312
159.1769,0.0299
160.1780,0.0286
161.1791,0.0274
162.1802,0.0264
163.1813,0.0254
164.1824,0.0244
165.1835,0.0236
166.1846,0.0228
167.1858,0.0221
168.1869,0.0214
169.1880,0.0208
170.1891,0.0202
171.1902,0.0196
172.1913,0.0191
173.1924,0.0187
174.1935,0.0182
175.1947,0.0179
176.1958,0.0175
177.1969,0.0171
178.1980,0.0168
179.1991,0.0166
180.2002,0.0163
181.2013,0.0161
182.2024,0.0159
183.2036,0.0157
184.2047,0.0155
185.2058,0.0154
186.2069,0.0153
187.2080,0.0152
188.2091,0.0151
189.2102,0.0150
190.2113,0.0150
191.2125,0.0150
192.2136,0.0150
193.2147,0.0150
194.2158,0.0151
195.2169,0.0152
196.2180,0.0153
197.2191,0.0154
198.2202,0.0156
199.2214,0.0158
200.2225,0.0160
201.2236,0.0163
202.2247,0.0166
203.2258,0.0169
204.2269,0.0173
205.2280,0.0177
206.2291,0.0182
207.2303,0.0187
208.2314,0.0193
209.2325,0.0200
210.2336,0.0207
211.2347,0.0215
212.2358,0.0224
213.2369,0.0234
214.2380,0.0245
215.2392,0.0258
216.2403,0.0272
217.2414,0.0288
218.2425,0.0306
219.2436,0.0326
220.2447,0.0349
221.2458,0.0375
222.2469,0.0405
223.2481,0.0439
224.2492,0.0479
225.2503,0.0525
226.2514,0.0580
227.2525,0.0644
228.2536,0.0720
229.2547,0.0812
230.2558,0.0924
231.2570,0.1061
232.2581,0.1232
233.2592,0.1447
234.2603,0.1723
235.2614,0.2080
236.2625,0.2552
237.2636,0.3180
238.2647,0.4024
239.2659,0.5145
240.2670,0.6572
241.2681,0.8194
242.2692,0.9610
243.2703,1.0174
244.2714,0.9546
245.2725,0.8101
246.2736,0.6481
247.2747,0.5070
248.2759,0.3965
249.2770,0.3135
250.2781,0.2515
251.2792,0.2051
252.2803,0.1698
253.2814,0.1425
254.2825,0.1212
255.2836,0.1043
256.2848,0.0906
257.2859,0.0795
258.2870,0.0703
259.2881,0.0626
260.2892,0.0562
261.2903,0.0507
262.2914,0.0460
263.2925,0.0420
264.2937,0.0385
265.2948,0.0354
266.2959,0.0327
267.2970,0.0304
268.2981,0.0282
269.2992,0.0264
270.3003,0.0247
271.3014,0.0232
272.3026,0.0218
273.3037,0.0206
274.3048,0.0195
275.3059,0.0185
276.3070,0.0175
277.3081,0.0167
278.3092,0.0159
279.3103,0.0152
280.3115,0.0146
281.3126,0.0140
282.3137,0.0134
283.3148,0.0129
284.3159,0.0124
285.3170,0.0120
286.3181,0.0115
287.3192,0.0112
288.3204,0.0108
289.3215,0.0105
290.3226,0.0102
291.3237,0.0099
292.3248,0.0096
293.3259,0.0094
294.3270,0.0091
295.3281,0.0089
296.3293,0.0087
297.3304,0.0085
298.3315,0.0084
299.3326,0.0082
300.3337,0.0081
301.3348,0.0079
302.3359,0.0078
303.3370,0.0077
304.3382,0.0076
305.3393,0.0076
306.3404,0.0075
307.3415,0.0075
308.3426,0.0074
309.3437,0.0074
310.3448,0.0075
311.3459,0.0075
312.3471,0.0076
313.3482,0.0077
314.3493,0.0078
315.3504,0.0080
316.3515,0.0083
317.3526,0.0086
318.3537,0.0090
319.3548,0.0095
320.3560,0.0102
321.3571,0.0111
322.3582,0.0122
323.3593,0.0138
324.3604,0.0158
325.3615,0.0186
326.3626,0.0224
327.3637,0.0272
328.3648,0.0330
329.3660,0.0386
330.3671,0.0418
331.3682,0.0409
332.3693,0.0363
333.3704,0.0304
334.3715,0.0249
335.3726,0.0206
336.3737,0.0173
337.3749,0.0149
338.3760,0.0131
339.3771,0.0118
340.3782,0.0108
341.3793,0.0101
342.3804,0.0095
343.3815,0.0091
344.3826,0.0089
345.3838,0.0087
346.3849,0.0087
347.3860,0.0087
348.3871,0.0088
349.3882,0.0090
350.3893,0.0094
351.3904,0.0098
352.3915,0.0104
353.3927,0.0111
354.3938,0.0121
355.3949,0.0134
356.3960,0.0151
357.3971,0.0173
358.3982,0.0203
359.3993,0.0242
360.4004,0.0296
361.4016,0.0367
362.4027,0.0458
363.4038,0.0561
364.4049,0.0651
365.4060,0.0686
366.4071,0.0645
367.4082,0.0553
368.4093,0.0449
369.4105,0.0359
370.4116,0.0288
371.4127,0.0235
372.4138,0.0196
373.4149,0.0166
374.4160,0.0144
375.4171,0.0126
376.4182,0.0113
377.4194,0.0102
378.4205,0.0093
379.4216,0.0086
380.4227,0.0080
381.4238,0.0075
382.4249,0.0071
383.4260,0.0068
384.4271,0.0065
385.4283,0.0063
386.4294,0.0061
387.4305,0.0059
388.4316,0.0057
389.4327,0.0056
390.4338,0.0055
391.4349,0.0054
392.4360,0.0053
393.4372,0.0053
394.4383,0.0052
395.4394,0.0052
396.4405,0.0051
397.4416,0.0051
398.4427,0.0051
399.4438,0.0051
400.4449,0.0051
401.4461,0.0051
402.4472,0.0051
403.4483,0.0051
404.4494,0.0051
405.4505,0.0051
406.4516,0.0052
407.4527,0.0052
408.4538,0.0052
409.4549,0.0053
410.4561,0.0054
411.4572,0.0054
412.4583,0.0055
413.4594,0.0055
414.4605,0.0056
415.4616,0.0057
416.4627,0.0058
417.4638,0.0059
418.4650,0.0060
419.4661,0.0061
420.4672,0.0062
421.4683,0.0064
422.4694,0.0065
423.4705,0.0066
424.4716,0.0068
425.4727,0.0070
426.4739,0.0071
427.4750,0.0073
428.4761,0.0075
429.4772,0.0078
430.4783,0.0080
431.4794,0.0082
432.4805,0.0085
433.4816,0.0088
434.4828,0.0091
435.4839,0.0094
436.4850,0.0098
437.4861,0.0102
438.4872,0.0106
439.4883,0.0110
440.4894,0.0115
441.4905,0.0121
442.4917,0.0126
443.4928,0.0133
444.4939,0.0139
445.4950,0.0147
446.4961,0.0155
447.4972,0.0164
448.4983,0.0174
449.4994,0.0185
450.5006,0.0198
451.5017,0.0211
452.5028,0.0227
453.5039,0.0244
454.5050,0.0264
455.5061,0.0286
456.5072,0.0312
457.5083,0.0341
458.5095,0.0375
459.5106,0.0414
460.5117,0.0460
461.5128,0.0514
462.5139,0.0580
463.5150,0.0658
464.5161,0.0754
465.5172,0.0871
466.5184,0.1018
467.5195,0.1205
468.5206,0.1444
469.5217,0.1757
470.5228,0.2171
471.5239,0.2725
472.5250,0.3467
473.5261,0.4442
474.5273,0.5644
475.5284,0.6912
476.5295,0.7829
477.5306,0.7915
478.5317,0.7116
479.5328,0.5874
480.5339,0.4642
481.5350,0.3623
482.5362,0.2843
483.5373,0.2260
484.5384,0.1824
485.5395,0.1496
486.5406,0.1246
487.5417,0.1052
488.5428,0.0899
489.5439,0.0777
490.5451,0.0678
491.5462,0.0597
492.5473,0.0530
493.5484,0.0474
494.5495,0.0427
495.5506,0.0387
496.5517,0.0353
497.5528,0.0323
498.5539,0.0298
499.5551,0.0275
500.5562,0.0256
501.5573,0.0238
502.5584,0.0223
503.5595,0.0209
504.5606,0.0197
505.5617,0.0186
506.5628,0.0176
507.5640,0.0168
508.5651,0.0160
509.5662,0.0153
510.5673,0.0146
511.5684,0.0140
512.5695,0.0135
513.5706,0.0130
514.5717,0.0126
515.5729,0.0122
516.5740,0.0118
517.5751,0.0115
518.5762,0.0112
519.5773,0.0109
520.5784,0.0106
521.5795,0.0104
522.5806,0.0102
523.5818,0.0100
524.5829,0.0099
525.5840,0.0097
526.5851,0.0096
527.5862,0.0095
528.5873,0.0094
529.5884,0.0093
530.5895,0.0092
531.5907,0.0091
532.5918,0.0091
533.5929,0.0091
534.5940,0.0090
535.5951,0.0090
536.5962,0.0090
537.5973,0.0090
538.5984,0.0091
539.5996,0.0091
540.6007,0.0091
541.6018,0.0092
542.6029,0.0093
543.6040,0.0093
544.6051,0.0094
545.6062,0.0095
546.6073,0.0097
547.6085,0.0098
548.6096,0.0099
549.6107,0.0101
550.6118,0.0102
551.6129,0.0104
552.6140,0.0106
553.6151,0.0108
554.6162,0.0111
555.6174,0.0113
556.6185,0.0116
557.6196,0.0118
558.6207,0.0122
559.6218,0.0125
560.6229,0.0128
561.6240,0.0132
562.6251,0.0136
563.6263,0.0140
564.6274,0.0145
565.6285,0.0150
566.6296,0.0155
567.6307,0.0161
568.6318,0.0167
569.6329,0.0174
570.6340,0.0181
571.6352,0.0189
572.6363,0.0198
573.6374,0.0207
574.6385,0.0217
575.6396,0.0227
576.6407,0.0239
577.6418,0.0252
578.6429,0.0266
579.6440,0.0281
580.6452,0.0298
581.6463,0.0316
582.6474,0.0337
583.6485,0.0359
584.6496,0.0384
585.6507,0.0412
586.6518,0.0443
587.6529,0.0479
588.6541,0.0518
589.6552,0.0563
590.6563,0.0615
591.6574,0.0674
592.6585,0.0741
593.6596,0.0820
594.6607,0.0912
595.6618,0.1021
596.6630,0.1150
597.6641,0.1305
598.6652,0.1492
599.6663,0.1723
600.6674,0.2008
601.6685,0.2368
602.6696,0.2827
603.6707,0.3422
604.6719,0.4205
605.6730,0.5249
606.6741,0.6649
607.6752,0.8512
608.6763,1.0897
609.6774,1.3648
610.6785,1.6127
611.6796,1.7248
612.6808,1.6344
613.6819,1.3961
614.6830,1.1198
615.6841,0.8756
616.6852,0.6834
617.6863,0.5387
618.6874,0.4308
619.6885,0.3499
620.6897,0.2885
621.6908,0.2412
622.6919,0.2042
623.6930,0.1749
624.6941,0.1513
625.6952,0.1321
626.6963,0.1162
627.6974,0.1031
628.6986,0.0920
629.6997,0.0825
630.7008,0.0745
631.7019,0.0676
632.7030,0.0616
633.7041,0.0563
634.7052,0.0517
635.7063,0.0477
636.7075,0.0441
637.7086,0.0409
638.7097,0.0380
639.7108,0.0354
640.7119,0.0331
641.7130,0.0310
642.7141,0.0291
643.7152,0.0274
644.7164,0.0258
645.7175,0.0244
646.7186,0.0231
647.7197,0.0219
648.7208,0.0207
649.7219,0.0197
650.7230,0.0187
651.7241,0.0179
652.7253,0.0170
653.7264,0.0163
654.7275,0.0155
655.7286,0.0149
656.7297,0.0143
657.7308,0.0137
658.7319,0.0131
659.7330,0.0126
660.7341,0.0121
661.7353,0.0117
662.7364,0.0112
663.7375,0.0108
664.7386,0.0104
665.7397,0.0101
666.7408,0.0097
667.7419,0.0094
668.7430,0.0091
669.7442,0.0088
670.7453,0.0085
671.7464,0.0083
672.7475,0.0080
673.7486,0.0078
674.7497,0.0075
675.7508,0.0073
676.7519,0.0071
677.7531,0.0069
678.7542,0.0067
679.7553,0.0065
680.7564,0.0064
681.7575,0.0062
682.7586,0.0060
683.7597,0.0059
684.7608,0.0057
685.7620,0.0056
686.7631,0.0055
687.7642,0.0053
688.7653,0.0052
689.7664,0.0051
690.7675,0.0050
691.7686,0.0048
692.7697,0.0047
693.7709,0.0046
694.7720,0.0045
695.7731,0.0044
696.7742,0.0043
697.7753,0.0042
698.7764,0.0042
699.7775,0.0041
700.7786,0.0040
701.7798,0.0039
702.7809,0.0038
703.7820,0.0038
704.7831,0.0037
705.7842,0.0036
706.7853,0.0035
707.7864,0.0035
708.7875,0.0034
709.7887,0.0034
710.7898,0.0033
711.7909,0.0032
712.7920,0.0032
713.7931,0.0031
714.7942,0.0031
715.7953,0.0030
716.7964,0.0030
717.7976,0.0029
718.7987,0.0029
719.7998,0.0028
720.8009,0.0028
721.8020,0.0027
722.8031,0.0027
723.8042,0.0026
724.8053,0.0026
725.8065,0.0026
726.8076,0.0025
727.8087,0.0025
728.8098,0.0024
729.8109,0.0024
730.8120,0.0024
731.8131,0.0023
732.8142,0.0023
733.8154,0.0023
734.8165,0.0022
735.8176,0.0022
736.8187,0.0022
737.8198,0.0021
738.8209,0.0021
739.8220,0.0021
740.8231,0.0021
741.8242,0.0020
742.8254,0.0020
743.8265,0.0020
744.8276,0.0020
745.8287,0.0019
746.8298,0.0019
747.8309,0.0019
748.8320,0.0019
749.8331,0.0018
750.8343,0.0018
751.8354,0.0018
752.8365,0.0018
753.8376,0.0017
754.8387,0.0017
755.8398,0.0017
756.8409,0.0017
757.8420,0.0017
758.8432,0.0016
759.8443,0.0016
760.8454,0.0016
761.8465,0.0016
762.8476,0.0016
763.8487,0.0016
764.8498,0.0015
765.8509,0.0015
766.8521,0.0015
767.8532,0.0015
768.8543,0.0015
769.8554,0.0015
770.8565,0.0014
771.8576,0.0014
772.8587,0.0014
773.8598,0.0014
774.8610,0.0014
775.8621,0.0014
776.8632,0.0014
777.8643,0.0013
778.8654,0.0013
779.8665,0.0013
780.8676,0.0013
781.8687,0.0013
782.8699,0.0013
783.8710,0.0013
784.8721,0.0012
785.8732,0.0012
786.8743,0.0012
787.8754,0.0012
788.8765,0.0012
789.8776,0.0012
790.8788,0.0012
791.8799,0.0012
792.8810,0.0012
793.8821,0.0011
794.8832,0.0011
795.8843,0.0011
796.8854,0.0011
797.8865,0.0011
798.8877,0.0011
799.8888,0.0011
800.8899,0.0011
801.8910,0.0011
802.8921,0.0011
803.8932,0.0010
804.8943,0.0010
805.8954,0.0010
806.8966,0.0010
807.8977,0.0010
808.8988,0.0010
809.8999,0.0010
810.9010,0.0010
811.9021,0.0010
812.9032,0.0010
813.9043,0.0010
814.9055,0.0010
815.9066,0.0009
816.9077,0.0009
817.9088,0.0009
818.9099,0.0009
819.9110,0.0009
820.9121,0.0009
821.9132,0.0009
822.9143,0.0009
823.9155,0.0009
824.9166,0.0009
825.9177,0.0009
826.9188,0.0009
827.9199,0.0009
828.9210,0.0009
829.9221,0.0008
830.9232,0.0008
831.9244,0.0008
832.9255,0.0008
833.9266,0.0008
834.9277,0.0008
835.9288,0.0008
836.9299,0.0008
837.9310,0.0008
838.9321,0.0008
839.9333,0.0008
840.9344,0.0008
841.9355,0.0008
842.9366,0.0008
843.9377,0.0008
844.9388,0.0008
845.9399,0.0008
846.9410,0.0007
847.9422,0.0007
848.9433,0.0007
849.9444,0.0007
850.9455,0.0007
851.9466,0.0007
852.9477,0.0007
853.9488,0.0007
854.9499,0.0007
855.9511,0.0007
856.9522,0.0007
857.9533,0.0007
858.9544,0.0007
859.9555,0.0007
860.9566,0.0007
861.9577,0.0007
862.9588,0.0007
863.9600,0.0007
864.9611,0.0007
865.9622,0.0007
866.9633,0.0007
867.9644,0.0007
868.9655,0.0006
869.9666,0.0006
870.9677,0.0006
871.9689,0.0006
872.9700,0.0006
873.9711,0.0006
874.9722,0.0006
875.9733,0.0006
876.9744,0.0006
877.9755,0.0006
878.9766,0.0006
879.9778,0.0006
880.9789,0.0006
881.9800,0.0006
882.9811,0.0006
883.9822,0.0006
884.9833,0.0006
885.9844,0.0006
886.9855,0.0006
887.9867,0.0006
888.9878,0.0006
889.9889,0.0006
890.9900,0.0006
891.9911,0.0006
892.9922,0.0006
893.9933,0.0006
894.9944,0.0006
895.9956,0.0006
896.9967,0.0005
897.9978,0.0005
898.9989,0.0005
900.0000,0.0005
